#     Time(s)        He4(msun)       Tmax(K)        TotalKE(erg)    RotKE(erg)   NonRotKE(erg) 
     0.00000000e+00 3.20824770e-02 6.34649856e+08 3.93194182e+49 3.83009739e+49 1.01844426e+48     
     1.01997084e-01 3.20817043e-02 5.59750464e+08 3.93029803e+49 3.82835206e+49 1.01945963e+48     
     2.02254392e-01 3.20814976e-02 5.73435840e+08 3.93058469e+49 3.82861950e+49 1.01965193e+48     
     3.00695009e-01 3.20813169e-02 5.99162496e+08 3.93200896e+49 3.82963868e+49 1.02370279e+48     
     4.00586425e-01 3.20811830e-02 5.78559232e+08 3.93413047e+49 3.83097528e+49 1.03155186e+48     
     5.02952216e-01 3.20811044e-02 5.68889408e+08 3.93679488e+49 3.83263847e+49 1.04156403e+48     
     6.02569325e-01 3.20807985e-02 5.22031392e+08 3.93975985e+49 3.83429438e+49 1.05465475e+48     
     7.02297771e-01 3.20801891e-02 5.48076288e+08 3.94304170e+49 3.83601509e+49 1.07026605e+48     
     8.03249636e-01 3.20795814e-02 5.07940928e+08 3.94670122e+49 3.83780175e+49 1.08899466e+48     
     9.02921724e-01 3.20790649e-02 4.88555360e+08 3.95063434e+49 3.83960440e+49 1.11029941e+48     
     1.00342311e+00 3.20783521e-02 4.76457824e+08 3.95474953e+49 3.84143520e+49 1.13314336e+48     
     1.10014708e+00 3.20777142e-02 4.60324416e+08 3.95875545e+49 3.84319669e+49 1.15558758e+48     
     1.20182421e+00 3.20771040e-02 4.55265984e+08 3.96290460e+49 3.84507920e+49 1.17825403e+48     
     1.30160077e+00 3.20766125e-02 4.58133728e+08 3.96683927e+49 3.84694770e+49 1.19891563e+48     
     1.40386276e+00 3.20763288e-02 4.55444352e+08 3.97051117e+49 3.84884886e+49 1.21662310e+48     
     1.50304484e+00 3.20762450e-02 4.73476960e+08 3.97375085e+49 3.85066293e+49 1.23087916e+48     
     1.60292165e+00 3.20761390e-02 4.71808288e+08 3.97672335e+49 3.85247417e+49 1.24249177e+48     
     1.70344993e+00 3.20761602e-02 4.77170176e+08 3.97938470e+49 3.85433164e+49 1.25053068e+48     
     1.80064004e+00 3.20760632e-02 4.84035232e+08 3.98151182e+49 3.85615292e+49 1.25358896e+48     
     1.90108497e+00 3.20759435e-02 4.90077888e+08 3.98323984e+49 3.85801034e+49 1.25229495e+48     
     2.00302880e+00 3.20757545e-02 4.87978336e+08 3.98451483e+49 3.85983070e+49 1.24684135e+48     
     2.10265437e+00 3.20755850e-02 4.92018848e+08 3.98528056e+49 3.86150392e+49 1.23776645e+48     
     2.20280740e+00 3.20754087e-02 5.09407424e+08 3.98559866e+49 3.86306694e+49 1.22531728e+48     
     2.30033880e+00 3.20751584e-02 5.10618176e+08 3.98551956e+49 3.86445381e+49 1.21065751e+48     
     2.40247968e+00 3.20747059e-02 5.22617632e+08 3.98509792e+49 3.86575595e+49 1.19341963e+48     
     2.50365672e+00 3.20741722e-02 5.42478848e+08 3.98441758e+49 3.86690337e+49 1.17514202e+48     
     2.60359033e+00 3.20734946e-02 5.74561216e+08 3.98359965e+49 3.86791441e+49 1.15685236e+48     
     2.70232828e+00 3.20725837e-02 5.94478912e+08 3.98277929e+49 3.86882790e+49 1.13951393e+48     
     2.80102655e+00 3.20714856e-02 5.88714624e+08 3.98207447e+49 3.86969901e+49 1.12375458e+48     
     2.90095142e+00 3.20703517e-02 5.87038464e+08 3.98160892e+49 3.87059576e+49 1.11013161e+48     
     3.00135381e+00 3.20688700e-02 5.94742272e+08 3.98148840e+49 3.87157399e+49 1.09914411e+48     
     3.10014926e+00 3.20672442e-02 6.30083136e+08 3.98177488e+49 3.87263389e+49 1.09140990e+48     
     3.20027238e+00 3.20653127e-02 6.30185920e+08 3.98249577e+49 3.87379149e+49 1.08704280e+48     
     3.30060885e+00 3.20631321e-02 6.13255232e+08 3.98366104e+49 3.87504699e+49 1.08614047e+48     
     3.40305443e+00 3.20607078e-02 6.23894912e+08 3.98526602e+49 3.87638982e+49 1.08876201e+48     
     3.50026206e+00 3.20583045e-02 6.42747648e+08 3.98712194e+49 3.87766817e+49 1.09453770e+48     
     3.60044583e+00 3.20556938e-02 6.52445376e+08 3.98931062e+49 3.87896282e+49 1.10347796e+48     
     3.70379427e+00 3.20529524e-02 6.51831232e+08 3.99176620e+49 3.88023873e+49 1.11527469e+48     
     3.80363702e+00 3.20502163e-02 6.38423680e+08 3.99420837e+49 3.88137401e+49 1.12834359e+48     
     3.90012272e+00 3.20476218e-02 6.57252288e+08 3.99652976e+49 3.88234240e+49 1.14187366e+48     
     4.00208658e+00 3.20447790e-02 9.77713344e+08 3.99883696e+49 3.88319829e+49 1.15638665e+48     
     4.07249432e+00 3.19957448e-02 2.94722944e+09 4.00104585e+49 3.88388462e+49 1.17161236e+48     
     4.10007841e+00 3.18471512e-02 2.96828314e+09 4.00414096e+49 3.88475966e+49 1.19381299e+48     
     4.12673091e+00 3.16214623e-02 2.92562739e+09 4.01041569e+49 3.88647270e+49 1.23942997e+48     
     4.15273879e+00 3.13473621e-02 2.96218214e+09 4.01984175e+49 3.88920750e+49 1.30634248e+48     
     4.17817812e+00 3.10413053e-02 2.87604608e+09 4.03218911e+49 3.89296100e+49 1.39228117e+48     
     4.20048576e+00 3.07430032e-02 2.84914739e+09 4.04531962e+49 3.89713360e+49 1.48186024e+48     
     4.22573700e+00 3.03779513e-02 2.83221094e+09 4.06277015e+49 3.90321699e+49 1.59553160e+48     
     4.24944375e+00 3.00168859e-02 2.79928602e+09 4.08153869e+49 3.91030522e+49 1.71233470e+48     
     4.27293539e+00 2.96434815e-02 2.80362189e+09 4.10241227e+49 3.91857189e+49 1.83840375e+48     
     4.29643597e+00 2.92559158e-02 2.78020506e+09 4.12553700e+49 3.92799401e+49 1.97542996e+48     
     4.30040531e+00 2.91895329e-02 2.78969370e+09 4.12967934e+49 3.92968753e+49 1.99991810e+48     
     4.25909116e+00 2.98648777e-02 2.80158029e+09 4.08983051e+49 3.91355608e+49 1.76274431e+48     
     4.26816436e+00 2.97196134e-02 2.80336819e+09 4.09797779e+49 3.91679664e+49 1.81181156e+48     
     4.27822392e+00 2.95571901e-02 2.80457165e+09 4.10740881e+49 3.92059107e+49 1.86817733e+48     
     4.28822384e+00 2.93933230e-02 2.78556416e+09 4.11720667e+49 3.92458171e+49 1.92624964e+48     
     4.29713560e+00 2.92438897e-02 2.79433395e+09 4.12628065e+49 3.92830085e+49 1.97979798e+48     
     4.30047218e+00 2.91868246e-02 2.77279437e+09 4.12974785e+49 3.92972493e+49 2.00022930e+48     
     4.30913484e+00 2.90405196e-02 2.77672960e+09 4.13897370e+49 3.93348739e+49 2.05486319e+48     
     4.31865841e+00 2.88782385e-02 2.77677286e+09 4.14940423e+49 3.93770591e+49 2.11698326e+48     
     4.32822359e+00 2.87132830e-02 2.76266931e+09 4.16022160e+49 3.94209966e+49 2.18121942e+48     
     4.33778820e+00 2.85479498e-02 2.77081037e+09 4.17143464e+49 3.94667722e+49 2.24757419e+48     
     4.34722638e+00 2.83847167e-02 2.77412480e+09 4.18288255e+49 3.95137781e+49 2.31504745e+48     
     4.35623489e+00 2.82286838e-02 2.75661056e+09 4.19417896e+49 3.95602011e+49 2.38158842e+48     
     4.36538037e+00 2.80694112e-02 2.72480128e+09 4.20599141e+49 3.96088079e+49 2.45110622e+48     
     4.37357751e+00 2.79254183e-02 2.71650688e+09 4.21687696e+49 3.96536634e+49 2.51510618e+48     
     4.38225206e+00 2.77739529e-02 2.70680755e+09 4.22876391e+49 3.97025630e+49 2.58507608e+48     
     4.38995996e+00 2.76389289e-02 2.72024858e+09 4.23961811e+49 3.97472357e+49 2.64894534e+48     
     4.39841088e+00 2.74914002e-02 2.74293786e+09 4.25185115e+49 3.97975744e+49 2.72093702e+48     
     4.40014865e+00 2.74611935e-02 2.77056435e+09 4.25440670e+49 3.98080911e+49 2.73597588e+48     
     4.40812025e+00 2.73223422e-02 2.70655949e+09 4.26626904e+49 3.98569551e+49 2.80573536e+48     
     4.41552359e+00 2.71934606e-02 2.66485760e+09 4.27752441e+49 3.99033141e+49 2.87192993e+48     
     4.42299971e+00 2.70636932e-02 2.66778189e+09 4.28911160e+49 3.99508822e+49 2.94023383e+48     
     4.43065749e+00 2.69318409e-02 2.69537075e+09 4.30124777e+49 4.00005030e+49 3.01197463e+48     
     4.43875592e+00 2.67948284e-02 2.71427277e+09 4.31435815e+49 4.00538918e+49 3.08968973e+48     
     4.44675691e+00 2.66615437e-02 2.73087232e+09 4.32755360e+49 4.01075118e+49 3.16802417e+48     
     4.45427004e+00 2.65380833e-02 2.73468365e+09 4.34017491e+49 4.01586035e+49 3.24314564e+48     
     4.46166252e+00 2.64186568e-02 2.74349286e+09 4.35279348e+49 4.02094712e+49 3.31846357e+48     
     4.46962240e+00 2.62932765e-02 2.74170829e+09 4.36668657e+49 4.02651981e+49 3.40166758e+48     
     4.47716581e+00 2.61767714e-02 2.72837709e+09 4.38025270e+49 4.03204022e+49 3.48212485e+48     
     4.48483319e+00 2.60610898e-02 2.71280282e+09 4.39399952e+49 4.03755326e+49 3.56446254e+48     
     4.49294964e+00 2.59412774e-02 2.69741440e+09 4.40871395e+49 4.04345190e+49 3.65262052e+48     
     4.50018940e+00 2.58358779e-02 2.70310374e+09 4.42194427e+49 4.04875610e+49 3.73188168e+48     
     4.50818922e+00 2.57202238e-02 2.68416000e+09 4.43666500e+49 4.05465101e+49 3.82013987e+48     
     4.51576396e+00 2.56103262e-02 2.67788723e+09 4.45068808e+49 4.06025037e+49 3.90437705e+48     
     4.52313923e+00 2.55029465e-02 2.67243443e+09 4.46440516e+49 4.06570503e+49 3.98700125e+48     
     4.53069551e+00 2.53937013e-02 2.73567488e+09 4.47854835e+49 4.07128561e+49 4.07262741e+48     
     4.53863313e+00 2.52793292e-02 2.73540582e+09 4.49352670e+49 4.07705298e+49 4.16473724e+48     
     4.54629280e+00 2.51693206e-02 2.73884339e+09 4.50805194e+49 4.08245614e+49 4.25595804e+48     
     4.55382742e+00 2.50622587e-02 2.73643264e+09 4.52238512e+49 4.08760908e+49 4.34776036e+48     
     4.56106612e+00 2.49609954e-02 2.72127002e+09 4.53622907e+49 4.09242025e+49 4.43808817e+48     
     4.56795491e+00 2.48660574e-02 2.70629120e+09 4.54945571e+49 4.09685651e+49 4.52599199e+48     
     4.57483496e+00 2.47728127e-02 2.69385651e+09 4.56271298e+49 4.10113923e+49 4.61573753e+48     
     4.58168355e+00 2.46815141e-02 2.70338944e+09 4.57592836e+49 4.10524992e+49 4.70678446e+48     
     4.58841934e+00 2.45931861e-02 2.69651046e+09 4.58891594e+49 4.10914321e+49 4.79772722e+48     
     4.59518881e+00 2.45061471e-02 2.69372749e+09 4.60197243e+49 4.11290551e+49 4.89066921e+48     
     4.60027533e+00 2.44417956e-02 2.67882726e+09 4.61176054e+49 4.11563521e+49 4.96125335e+48     
     4.60708875e+00 2.43569997e-02 2.68469094e+09 4.62484052e+49 4.11916153e+49 5.05678987e+48     
     4.61392456e+00 2.42730497e-02 2.65632691e+09 4.63789556e+49 4.12254428e+49 5.15351286e+48     
     4.62060112e+00 2.41917485e-02 2.63906790e+09 4.65059382e+49 4.12571028e+49 5.24883539e+48     
     4.62761956e+00 2.41071552e-02 2.65677517e+09 4.66389105e+49 4.12888199e+49 5.35009059e+48     
     4.63429227e+00 2.40269335e-02 2.65607424e+09 4.67644770e+49 4.13174794e+49 5.44699760e+48     
     4.64146932e+00 2.39426566e-02 2.62725683e+09 4.68992612e+49 4.13468195e+49 5.55244167e+48     
     4.64877084e+00 2.38589598e-02 2.61406413e+09 4.70357608e+49 4.13751201e+49 5.66064072e+48     
     4.65611331e+00 2.37771117e-02 2.59702682e+09 4.71724008e+49 4.14021163e+49 5.77028446e+48     
     4.66351562e+00 2.36972892e-02 2.59620198e+09 4.73095277e+49 4.14279721e+49 5.88155559e+48     
     4.67110781e+00 2.36177805e-02 2.59394355e+09 4.74496028e+49 4.14531399e+49 5.99646283e+48     
     4.67874707e+00 2.35399330e-02 2.59029171e+09 4.75895261e+49 4.14770725e+49 6.11245357e+48     
     4.68629947e+00 2.34650369e-02 2.59113293e+09 4.77267269e+49 4.14993451e+49 6.22738180e+48     
     4.69343871e+00 2.33957793e-02 2.58839091e+09 4.78552299e+49 4.15191647e+49 6.33606528e+48     
     4.70035870e+00 2.33298368e-02 2.57261466e+09 4.79786975e+49 4.15372670e+49 6.44143059e+48     
     4.70779287e+00 2.32595603e-02 2.55237197e+09 4.81102970e+49 4.15555533e+49 6.55474366e+48     
     4.71520871e+00 2.31891915e-02 2.53396403e+09 4.82405471e+49 4.15726409e+49 6.66790622e+48     
     4.72261474e+00 2.31183895e-02 2.52523930e+09 4.83694306e+49 4.15885956e+49 6.78083500e+48     
     4.72958115e+00 2.30514163e-02 2.51360922e+09 4.84897843e+49 4.16026460e+49 6.88713828e+48     
     4.73664730e+00 2.29836502e-02 2.56280474e+09 4.86111610e+49 4.16160311e+49 6.99512981e+48     
     4.74401935e+00 2.29135818e-02 2.59066880e+09 4.87371796e+49 4.16291518e+49 7.10802785e+48     
     4.75138422e+00 2.28448345e-02 2.56897434e+09 4.88624453e+49 4.16414671e+49 7.22097824e+48     
     4.75875244e+00 2.27785067e-02 2.53488666e+09 4.89871525e+49 4.16530637e+49 7.33408873e+48     
     4.76612245e+00 2.27148159e-02 2.55029811e+09 4.91111785e+49 4.16639658e+49 7.44721270e+48     
     4.77349417e+00 2.26535515e-02 2.53917722e+09 4.92343394e+49 4.16741826e+49 7.56015677e+48     
     4.78086693e+00 2.25947988e-02 2.54156800e+09 4.93565513e+49 4.16836505e+49 7.67290080e+48     
     4.78824055e+00 2.25378576e-02 2.50428595e+09 4.94773792e+49 4.16923709e+49 7.78500832e+48     
     4.79561614e+00 2.24832766e-02 2.48474291e+09 4.95969501e+49 4.17004298e+49 7.89652026e+48     
     4.79414094e+00 2.24939621e-02 2.49039667e+09 4.95730690e+49 4.16988596e+49 7.87420942e+48     
     4.80004280e+00 2.24520103e-02 2.45615667e+09 4.96679976e+49 4.17049424e+49 7.96305524e+48     
     4.81113018e+00 2.23781959e-02 2.40403226e+09 4.98440227e+49 4.17152877e+49 8.12873498e+48     
     4.82204661e+00 2.23094047e-02 2.42182886e+09 5.00139933e+49 4.17240239e+49 8.28996945e+48     
     4.83349580e+00 2.22404652e-02 2.42278682e+09 5.01886600e+49 4.17316031e+49 8.45705690e+48     
     4.84510032e+00 2.21744964e-02 2.43793920e+09 5.03621292e+49 4.17377149e+49 8.62441432e+48     
     4.85627208e+00 2.21166557e-02 2.38961638e+09 5.05262017e+49 4.17422834e+49 8.78391827e+48     
     4.86867513e+00 2.20596274e-02 2.34028390e+09 5.07044288e+49 4.17458430e+49 8.95858579e+48     
     4.88119283e+00 2.20085741e-02 2.24290893e+09 5.08798609e+49 4.17478728e+49 9.13198807e+48     
     4.89349382e+00 2.19633192e-02 2.19184154e+09 5.10475226e+49 4.17483677e+49 9.29915482e+48     
     4.90018618e+00 2.19403567e-02 2.18464384e+09 5.11366380e+49 4.17480316e+49 9.38860637e+48     
     4.91289903e+00 2.18993593e-02 2.12608307e+09 5.13019618e+49 4.17462960e+49 9.55566582e+48     
     4.92561259e+00 2.18611007e-02 2.05292339e+09 5.14621578e+49 4.17431425e+49 9.71901535e+48     
     4.93778364e+00 2.18267715e-02 2.05874445e+09 5.16108210e+49 4.17389029e+49 9.87191802e+48     
     4.94995872e+00 2.17949505e-02 2.05738829e+09 5.17550130e+49 4.17334722e+49 1.00215408e+49     
     4.96227678e+00 2.17651470e-02 2.05079936e+09 5.18964099e+49 4.17267953e+49 1.01696146e+49     
     4.97419719e+00 2.17379482e-02 2.05049126e+09 5.20289368e+49 4.17192284e+49 1.03097084e+49     
     4.98610806e+00 2.17126564e-02 2.04068262e+09 5.21571102e+49 4.17106613e+49 1.04464489e+49     
     4.99803920e+00 2.16893411e-02 2.07681920e+09 5.22812483e+49 4.17010128e+49 1.05802355e+49     
     5.00002727e+00 2.16856287e-02 2.09169357e+09 5.23015317e+49 4.16993036e+49 1.06022281e+49     
     5.01209902e+00 2.16640452e-02 2.14914483e+09 5.24223637e+49 4.16883376e+49 1.07340260e+49     
     5.02408394e+00 2.16439241e-02 2.16721818e+09 5.25383846e+49 4.16765068e+49 1.08618778e+49     
     5.03560974e+00 2.16254713e-02 2.18031181e+09 5.26462542e+49 4.16642795e+49 1.09819747e+49     
     5.04734514e+00 2.16072017e-02 2.18588954e+09 5.27529453e+49 4.16511134e+49 1.11018319e+49     
     5.05970710e+00 2.15880213e-02 2.19174118e+09 5.28616491e+49 4.16364625e+49 1.12251866e+49     
     5.07217101e+00 2.15691786e-02 2.19355290e+09 5.29673491e+49 4.16209361e+49 1.13464130e+49     
     5.08401408e+00 2.15515369e-02 2.19480448e+09 5.30645881e+49 4.16055744e+49 1.14590136e+49     
     5.09522452e+00 2.15351189e-02 2.19033600e+09 5.31534781e+49 4.15904527e+49 1.15630254e+49     
     5.10005171e+00 2.15282511e-02 2.18612531e+09 5.31908583e+49 4.15837690e+49 1.16070893e+49     
     5.11107873e+00 2.15129253e-02 2.17679770e+09 5.32743949e+49 4.15681457e+49 1.17062492e+49     
     5.12211458e+00 2.14979114e-02 2.18105216e+09 5.33555192e+49 4.15520212e+49 1.18034980e+49     
     5.13338159e+00 2.14829236e-02 2.17058022e+09 5.34358770e+49 4.15350491e+49 1.19008279e+49     
     5.14511186e+00 2.14676762e-02 2.16268621e+09 5.35170767e+49 4.15168857e+49 1.20001910e+49     
     5.15724454e+00 2.14521236e-02 2.17945754e+09 5.35984197e+49 4.14975876e+49 1.21008321e+49     
     5.16949830e+00 2.14364017e-02 2.15930138e+09 5.36780058e+49 4.14776119e+49 1.22003939e+49     
     5.18190834e+00 2.14200621e-02 2.14369869e+09 5.37561584e+49 4.14568954e+49 1.22992630e+49     
     5.19362736e+00 2.14044995e-02 2.14629683e+09 5.38282389e+49 4.14370046e+49 1.23912343e+49     
     5.20032420e+00 2.13955746e-02 2.14390746e+09 5.38684604e+49 4.14254540e+49 1.24430064e+49     
     5.20032420e+00 2.13955746e-02 2.14390746e+09 5.38684600e+49 4.14254539e+49 1.24430061e+49     
     5.21156472e+00 2.13805445e-02 2.13706624e+09 5.39345053e+49 4.14058021e+49 1.25287032e+49     
     5.22276735e+00 2.13654555e-02 2.11484186e+09 5.39984198e+49 4.13858375e+49 1.26125823e+49     
     5.23403796e+00 2.13501672e-02 2.09386086e+09 5.40609972e+49 4.13654804e+49 1.26955169e+49     
     5.24548142e+00 2.13343599e-02 2.16888090e+09 5.41229423e+49 4.13445137e+49 1.27784286e+49     
     5.25685806e+00 2.13183294e-02 2.23675264e+09 5.41829898e+49 4.13233750e+49 1.28596148e+49     
     5.26836911e+00 2.13019089e-02 2.27756723e+09 5.42423619e+49 4.13017292e+49 1.29406327e+49     
     5.28042758e+00 2.12844608e-02 2.30151936e+09 5.43031509e+49 4.12788064e+49 1.30243446e+49     
     5.29259981e+00 2.12667532e-02 2.28434944e+09 5.43629921e+49 4.12554689e+49 1.31075231e+49     
     5.30006824e+00 2.12559405e-02 2.26711859e+09 5.43989187e+49 4.12410045e+49 1.31579142e+49     
     5.31156219e+00 2.12396003e-02 2.21786138e+09 5.44531881e+49 4.12186365e+49 1.32345515e+49     
     5.32302804e+00 2.12238690e-02 2.17236813e+09 5.45060007e+49 4.11961355e+49 1.33098652e+49     
     5.33449536e+00 2.12086796e-02 2.14212813e+09 5.45576362e+49 4.11734671e+49 1.33841691e+49     
     5.34610257e+00 2.11936318e-02 2.10941005e+09 5.46084790e+49 4.11502950e+49 1.34581841e+49     
     5.35761237e+00 2.11788529e-02 2.06503987e+09 5.46575794e+49 4.11271024e+49 1.35304770e+49     
     5.36897061e+00 2.11643379e-02 2.02833741e+09 5.47047612e+49 4.11039904e+49 1.36007708e+49     
     5.38087700e+00 2.11492076e-02 2.00342131e+09 5.47526763e+49 4.10795360e+49 1.36731403e+49     
     5.39270117e+00 2.11344440e-02 1.98845427e+09 5.47990209e+49 4.10550640e+49 1.37439569e+49     
     5.40018396e+00 2.11253737e-02 1.97696320e+09 5.48279207e+49 4.10395660e+49 1.37883547e+49     
     5.41197638e+00 2.11115313e-02 1.95581069e+09 5.48724533e+49 4.10150527e+49 1.38574007e+49     
     5.42370247e+00 2.10981951e-02 1.95496781e+09 5.49154064e+49 4.09906491e+49 1.39247573e+49     
     5.43533056e+00 2.10852188e-02 1.94029811e+09 5.49569935e+49 4.09664728e+49 1.39905207e+49     
     5.44708540e+00 2.10722254e-02 1.91200589e+09 5.49978601e+49 4.09419364e+49 1.40559237e+49     
     5.45882989e+00 2.10598557e-02 1.87642470e+09 5.50375724e+49 4.09173093e+49 1.41202631e+49     
     5.47061356e+00 2.10478195e-02 1.84348774e+09 5.50763559e+49 4.08924648e+49 1.41838911e+49     
     5.48210907e+00 2.10364044e-02 1.94223923e+09 5.51130482e+49 4.08680701e+49 1.42449781e+49     
     5.49379017e+00 2.10252919e-02 2.03440384e+09 5.51491971e+49 4.08431385e+49 1.43060585e+49     
     5.50032170e+00 2.10193390e-02 2.04807270e+09 5.51689190e+49 4.08291782e+49 1.43397408e+49     
     5.51098115e+00 2.10100467e-02 1.89383194e+09 5.52004704e+49 4.08063676e+49 1.43941028e+49     
     5.52169664e+00 2.10011140e-02 1.95218214e+09 5.52314275e+49 4.07833914e+49 1.44480361e+49     
     5.53328965e+00 2.09919339e-02 1.92081370e+09 5.52640651e+49 4.07584412e+49 1.45056239e+49     
     5.54463147e+00 2.09835006e-02 2.04240154e+09 5.52950664e+49 4.07339063e+49 1.45611602e+49     
     5.55562490e+00 2.09757002e-02 1.99552358e+09 5.53242964e+49 4.07100762e+49 1.46142203e+49     
     5.56655074e+00 2.09682809e-02 2.02504717e+09 5.53522393e+49 4.06861493e+49 1.46660900e+49     
     5.57732501e+00 2.09613209e-02 1.97281306e+09 5.53792056e+49 4.06626187e+49 1.47165868e+49     
     5.58813731e+00 2.09542163e-02 2.11617600e+09 5.54056757e+49 4.06390300e+49 1.47666457e+49     
     5.59879487e+00 2.09473369e-02 1.94427853e+09 5.54308177e+49 4.06157884e+49 1.48150293e+49     
